
Stage_Workout (min),Distance(mile),Speed (mph),Watts ,HR ,RPM 
0.1,0.014,8.24,20,0,97
0.2,0.024,4.99,9,0,55
0.3,0.031,9.82,28,0,111
0.4,0.051,12.68,49,0,111
0.5,0.074,15.17,76,0,110
0.6,0.101,17.83,115,0,109
0.7,0.134,19.70,149,0,103
0.8,0.165,17.89,116,0,91
0.9,0.196,19.70,149,0,105
1.0,0.229,19.70,149,0,103
1.1,0.262,20.43,164,0,109
1.2,0.296,19.95,154,0,105
1.3,0.329,20.29,161,0,106
1.4,0.362,19.90,153,0,107
1.5,0.395,19.12,138,0,105
1.6,0.427,18.91,134,0,102
1.7,0.458,19.02,136,0,106
1.8,0.489,18.80,132,0,104
1.9,0.520,18.53,127,0,107
2.0,0.553,20.15,158,0,108
2.1,0.587,20.34,162,0,108
2.2,0.620,20.24,160,0,106
2.3,0.652,18.41,125,0,105
2.4,0.684,19.39,143,0,107
2.5,0.717,19.75,150,0,105
2.6,0.749,19.28,141,0,108
2.7,0.782,19.39,143,0,105
2.8,0.814,19.44,144,0,105
2.9,0.846,18.75,131,0,104
3.0,0.878,20.24,160,0,106
3.1,0.911,19.80,151,0,104
3.2,0.945,20.63,168,0,106
3.3,0.978,19.39,143,0,107
3.4,1.010,18.35,124,0,104
3.5,1.042,19.44,144,0,109
3.6,1.074,19.28,141,0,111
3.7,1.106,19.12,138,0,107
3.8,1.137,18.91,134,0,104
3.9,1.169,19.23,140,0,107
4.0,1.201,18.80,132,0,108
4.1,1.232,18.35,124,0,104
4.2,1.263,18.46,126,0,103
4.3,1.294,18.80,132,0,105
4.4,1.326,19.28,141,0,103
4.5,1.358,18.80,132,0,104
4.6,1.390,19.70,149,0,113
4.7,1.424,19.39,143,0,105
4.8,1.455,18.75,131,0,102
4.9,1.487,19.18,139,0,107
5.0,1.518,18.41,125,0,104
5.1,1.549,19.39,143,0,110
5.2,1.583,20.63,168,0,106
5.3,1.617,20.24,160,0,105
5.4,1.650,19.90,153,0,106
5.5,1.683,20.19,159,0,107
5.6,1.716,19.90,153,0,106
5.7,1.748,19.70,149,0,113
5.8,1.781,20.00,155,0,107
5.9,1.815,20.54,166,0,106
6.0,1.849,20.10,157,0,105
6.1,1.882,20.05,156,0,109
6.2,1.915,19.55,146,0,109
6.3,1.948,19.60,147,0,109
6.4,1.981,20.24,160,0,114
6.5,2.014,19.70,149,0,109
6.6,2.048,20.63,168,0,110
6.7,2.081,19.39,143,0,109
6.8,2.114,19.75,150,0,107
6.9,2.147,18.91,134,0,118
7.0,2.177,16.95,101,0,114
7.1,2.205,16.89,100,0,109
7.2,2.235,18.91,134,0,109
7.3,2.267,18.91,134,0,110
7.4,2.298,18.35,124,0,112
7.5,2.328,17.71,113,0,113
7.6,2.359,19.28,141,0,114
7.7,2.392,20.15,158,0,113
7.8,2.426,20.68,169,0,110
7.9,2.460,20.95,175,0,112
8.0,2.494,19.80,151,0,108
8.1,2.528,20.54,166,0,114
8.2,2.562,20.15,158,0,111
8.3,2.596,19.75,150,0,113
8.4,2.629,20.77,171,0,106
8.5,2.664,20.95,175,0,111
8.6,2.699,20.19,159,0,107
8.7,2.731,19.02,136,0,111
8.8,2.763,19.18,139,0,104
8.9,2.795,19.80,151,0,106
9.0,2.828,19.60,147,0,107
9.1,2.860,18.41,125,0,97
9.2,2.891,19.65,148,0,106
9.3,2.924,20.15,158,0,111
9.4,2.957,20.43,164,0,111
9.5,2.992,20.82,172,0,114
9.6,3.026,19.80,151,0,109
9.7,3.059,20.38,163,0,107
9.8,3.094,20.82,172,0,111
9.9,3.127,19.80,151,0,111
10.0,3.161,20.29,161,0,111
10.1,3.194,19.90,153,0,110
10.2,3.227,19.65,148,0,108
10.3,3.259,19.60,147,0,111
10.4,3.292,19.80,151,0,111
10.5,3.325,19.28,141,0,107
10.6,3.357,19.55,146,0,107
10.7,3.392,21.04,177,0,109
10.8,3.427,21.04,177,0,110
10.9,3.463,21.88,196,0,110
11.0,3.497,20.85,173,0,110
11.1,3.531,19.95,154,0,113
11.2,3.565,20.68,169,0,111
11.3,3.599,20.85,173,0,110
11.4,3.633,19.65,148,0,109
11.5,3.667,21.04,177,0,111
11.6,3.701,20.24,160,0,110
11.7,3.734,20.15,158,0,110
11.8,3.769,21.13,179,0,111
11.9,3.804,20.05,156,0,109
12.0,3.838,20.43,164,0,113
12.1,3.873,20.63,168,0,113
12.2,3.906,19.65,148,0,114
12.3,3.940,21.27,182,0,114
12.4,3.974,19.90,153,0,111
12.5,4.008,20.90,174,0,113
12.6,4.044,20.72,170,0,113
12.7,4.078,20.90,174,0,113
12.8,4.113,21.04,177,0,115
12.9,4.149,21.04,177,0,111
13.0,4.184,20.82,172,0,111
13.1,4.218,20.24,160,0,113
13.2,4.252,21.32,183,0,110
13.3,4.286,20.15,158,0,106
13.4,4.319,20.05,156,0,111
13.5,4.353,19.95,154,0,113
13.6,4.387,20.54,166,0,113
13.7,4.421,20.68,169,0,112
13.8,4.454,19.85,152,0,113
13.9,4.487,19.07,137,0,110
14.0,4.520,20.29,161,0,110
14.1,4.554,20.24,160,0,112
14.2,4.587,20.10,157,0,114
14.3,4.622,21.27,182,0,116
14.4,4.658,20.90,174,0,112
14.5,4.692,19.70,149,0,109
14.6,4.726,20.63,168,0,112
14.7,4.759,20.43,164,0,110
14.8,4.793,20.00,155,0,114
14.9,4.827,20.58,167,0,116
15.0,4.861,20.49,165,0,114
15.1,4.895,20.29,161,0,113
15.2,4.929,20.29,161,0,115
15.3,4.963,20.82,172,0,115
15.4,4.997,19.75,150,0,115
15.5,5.030,19.90,153,0,114
15.6,5.063,20.24,160,0,112
15.7,5.098,20.54,166,0,119
15.8,5.132,20.72,170,0,117
15.9,5.167,21.18,180,0,115
16.0,5.203,20.77,171,0,114
16.1,5.238,21.71,192,0,116
16.2,5.274,21.79,194,0,117
16.3,5.309,19.90,153,0,112
16.4,5.342,20.24,160,0,116
16.5,5.375,20.24,160,0,116
16.6,5.408,20.38,163,0,116
16.7,5.444,21.79,194,0,116
16.8,5.478,20.29,161,0,117
16.9,5.513,21.79,194,0,116
17.0,5.549,21.04,177,0,110
17.1,5.582,18.12,120,0,114
17.2,5.610,16.28,91,0,115
17.3,5.637,17.09,103,0,116
17.4,5.665,17.59,111,0,115
17.5,5.695,17.83,115,0,112
17.6,5.724,16.76,98,0,113
17.7,5.753,17.83,115,0,116
17.8,5.783,18.91,134,0,115
17.9,5.813,17.21,105,0,113
18.0,5.843,17.21,105,0,113
18.1,5.874,19.34,142,0,111
18.2,5.906,19.34,142,0,112
18.3,5.938,19.55,146,0,117
18.4,5.968,17.28,106,0,113
18.5,5.998,18.91,134,0,113
18.6,6.031,19.07,137,0,113
18.7,6.061,17.71,113,0,113
18.8,6.090,17.71,113,0,106
18.9,6.122,19.39,143,0,114
19.0,6.152,17.09,103,0,111
19.1,6.180,16.89,100,0,107
19.2,6.208,16.42,93,0,104
19.3,6.237,17.71,113,0,115
19.4,6.266,16.95,101,0,112
19.5,6.295,17.15,104,0,109
19.6,6.323,17.77,114,0,113
19.7,6.354,17.15,104,0,100
19.8,6.382,17.59,111,0,110
19.9,6.410,17.59,111,0,109
20.0,6.441,18.35,124,0,111
Stage_01_Total,
Stage distance(mile),6.446,
Speed Max (mph),22.17,
Watts Max,203
HR Max,0
RPM Max,122
KCal,204
20.1,6.471,19.60,147,0,106
20.2,6.510,24.02,251,0,114
20.3,6.550,23.54,238,0,113
20.4,6.590,23.28,231,0,117
20.5,6.627,22.17,203,0,119
20.6,6.664,23.51,237,0,119
20.7,6.704,23.98,250,0,116
20.8,6.743,22.21,204,0,111
20.9,6.781,23.59,239,0,114
21.0,6.818,21.32,183,0,119
21.1,6.856,23.24,230,0,113
21.2,6.892,20.82,172,0,119
21.3,6.929,23.28,231,0,117
21.4,6.968,23.47,236,0,114
21.5,7.007,22.93,222,0,113
21.6,7.046,22.50,211,0,117
21.7,7.083,22.62,214,0,121
21.8,7.122,24.13,254,0,118
21.9,7.162,22.93,222,0,116
22.0,7.198,21.09,178,0,114
22.1,7.233,20.34,162,0,114
22.2,7.269,22.05,200,0,119
22.3,7.306,22.30,206,0,118
22.4,7.343,22.85,220,0,118
22.5,7.382,22.93,222,0,115
22.6,7.420,21.57,189,0,114
22.7,7.459,23.95,249,0,117
22.8,7.498,22.85,220,0,116
22.9,7.535,21.49,187,0,118
23.0,7.572,23.51,237,0,117
23.1,7.610,21.57,189,0,113
23.2,7.645,21.44,186,0,113
23.3,7.683,23.43,235,0,115
23.4,7.722,22.74,217,0,117
23.5,7.759,23.09,226,0,112
23.6,7.798,23.35,233,0,112
23.7,7.836,22.85,220,0,111
23.8,7.875,23.16,228,0,108
23.9,7.912,21.32,183,0,113
24.0,7.948,21.13,179,0,114
24.1,7.985,23.54,238,0,114
24.2,8.024,23.54,238,0,113
24.3,8.064,23.13,227,0,115
24.4,8.102,22.46,210,0,113
24.5,8.140,21.96,198,0,115
24.6,8.178,23.73,243,0,116
24.7,8.217,22.82,219,0,114
24.8,8.255,23.05,225,0,111
24.9,8.293,23.35,233,0,112
25.0,8.333,23.32,232,0,115
25.1,8.369,22.05,200,0,117
25.2,8.408,22.33,207,0,118
25.3,8.443,21.66,191,0,111
25.4,8.479,22.41,209,0,111
25.5,8.516,22.38,208,0,116
25.6,8.552,21.79,194,0,120
25.7,8.589,22.13,202,0,116
25.8,8.624,20.90,174,0,119
25.9,8.662,22.38,208,0,118
26.0,8.700,22.30,206,0,119
26.1,8.738,23.84,246,0,119
26.2,8.776,22.77,218,0,117
26.3,8.813,21.32,183,0,118
26.4,8.850,23.01,224,0,121
26.5,8.889,23.95,249,0,119
26.6,8.929,23.70,242,0,122
26.7,8.967,22.08,201,0,122
26.8,9.004,21.54,188,0,119
26.9,9.041,22.50,211,0,122
27.0,9.079,23.40,234,0,115
Stage_02_Total,
Stage distance(mile),2.645,
Speed Max (mph),24.68,
Watts Max,270
HR Max,0
RPM Max,124
KCal,106
27.1,9.109,13.50,57,0,41
27.2,9.129,10.93,35,0,74
27.3,9.146,10.16,30,0,80
27.4,9.164,11.07,36,0,96
27.5,9.183,11.21,37,0,108
27.6,9.203,12.23,45,0,109
27.7,9.224,13.70,59,0,106
27.8,9.247,14.93,73,0,108
27.9,9.272,14.68,70,0,106
28.0,9.297,15.01,74,0,104
28.1,9.323,15.56,81,0,108
28.2,9.349,15.92,86,0,105
28.3,9.375,15.40,79,0,113
28.4,9.401,16.00,87,0,105
28.5,9.427,14.51,68,0,105
28.6,9.451,14.85,72,0,100
28.7,9.477,16.63,96,0,102
28.8,9.505,16.49,94,0,107
28.9,9.533,16.56,95,0,110
29.0,9.560,16.07,88,0,105
29.1,9.586,15.71,83,0,101
29.2,9.611,14.93,73,0,100
29.3,9.636,15.48,80,0,105
29.4,9.662,15.71,83,0,109
29.5,9.689,15.85,85,0,104
29.6,9.716,16.42,93,0,103
29.7,9.742,15.85,85,0,103
29.8,9.769,16.21,90,0,103
29.9,9.796,16.21,90,0,106
30.0,9.823,16.49,94,0,107
30.1,9.850,16.07,88,0,108
30.2,9.876,15.71,83,0,108
30.3,9.903,16.56,95,0,108
30.4,9.931,16.35,92,0,107
30.5,9.958,16.07,88,0,108
30.6,9.985,16.35,92,0,109
30.7,10.013,17.46,109,0,109
30.8,10.043,19.02,136,0,113
30.9,10.075,19.02,136,0,109
31.0,10.107,18.96,135,0,109
31.1,10.136,16.63,96,0,108
31.2,10.165,17.65,112,0,106
31.3,10.194,17.53,110,0,106
31.4,10.224,18.01,118,0,111
31.5,10.252,16.42,93,0,109
31.6,10.283,18.75,131,0,110
31.7,10.314,18.86,133,0,107
31.8,10.346,18.80,132,0,107
31.9,10.376,18.01,118,0,106
32.0,10.407,18.24,122,0,105
Stage_03_Total,
Stage distance(mile),1.321,
Speed Max (mph),24.68,
Watts Max,180
HR Max,0
RPM Max,114
KCal,31
32.1,10.437,20.63,168,0,111
32.2,10.477,25.34,290,0,116
32.3,10.518,24.27,258,0,116
32.4,10.557,23.47,236,0,114
32.5,10.597,23.62,240,0,114
32.6,10.636,23.51,237,0,111
32.7,10.676,24.09,253,0,114
32.8,10.715,24.09,253,0,114
32.9,10.755,23.32,232,0,112
33.0,10.794,24.45,263,0,114
33.1,10.833,22.25,205,0,111
33.2,10.871,23.21,229,0,112
33.3,10.911,23.70,242,0,114
33.4,10.949,23.09,226,0,114
33.5,10.988,22.46,210,0,114
33.6,11.026,23.76,244,0,115
33.7,11.066,23.54,238,0,114
33.8,11.105,24.02,251,0,118
33.9,11.145,24.09,253,0,117
34.0,11.185,22.17,203,0,114
34.1,11.223,23.35,233,0,113
34.2,11.263,23.98,250,0,116
34.3,11.303,24.09,253,0,118
34.4,11.343,23.91,248,0,116
34.5,11.383,24.58,267,0,121
34.6,11.424,24.23,257,0,118
34.7,11.463,23.51,237,0,113
34.8,11.503,23.70,242,0,120
34.9,11.541,21.79,194,0,121
35.0,11.579,22.50,211,0,116

Stage_04_Total,
Stage distance(mile),1.167,
Speed Max (mph),25.34,
Watts Max,290
HR Max,0
RPM Max,125
KCal,50

35.1,11.610,15.56,81,0,70
35.2,11.631,11.35,38,0,77
35.3,11.650,10.93,35,0,83
35.4,11.668,11.48,39,0,90
35.5,11.689,11.99,43,0,93
35.6,11.709,12.23,45,0,98
35.7,11.729,12.68,49,0,95
35.8,11.751,13.10,53,0,95
35.9,11.772,12.57,48,0,104
36.0,11.794,13.89,61,0,106
36.1,11.819,14.85,72,0,106
36.2,11.843,14.25,65,0,108
36.3,11.867,14.43,67,0,104
36.4,11.892,15.32,78,0,108
36.5,11.917,14.51,68,0,110
36.6,11.943,15.92,86,0,107
36.7,11.969,15.40,79,0,100
36.8,11.993,14.16,64,0,90
36.9,12.017,13.89,61,0,90
37.0,12.041,15.40,79,0,74
Stage_05_Total,
Stage distance(mile),0.462,
Speed Max (mph),25.34,
Watts Max,211
HR Max,0
RPM Max,116
KCal,9
37.1,12.074,23.70,242,0,89
37.2,12.117,25.63,299,0,88
37.3,12.160,26.51,328,0,96
37.4,12.204,26.12,315,0,87
37.5,12.246,25.60,298,0,86
37.6,12.288,26.37,323,0,98
37.7,12.334,26.97,344,0,102
37.8,12.378,27.05,347,0,102
37.9,12.420,24.61,268,0,95
38.0,12.463,24.79,273,0,75
Stage_06_Total,
Stage distance(mile),0.422,
Speed Max (mph),27.68,
Watts Max,370
HR Max,0
RPM Max,111
KCal,21
38.1,12.489,12.11,44,0,38
38.2,12.507,10.16,30,0,51
38.3,12.525,10.48,32,0,55
38.4,12.541,9.82,28,0,54
38.5,12.558,10.32,31,0,63
38.6,12.575,10.48,32,0,61
38.7,12.593,10.48,32,0,64
38.8,12.610,10.16,30,0,59
38.9,12.627,9.82,28,0,69
39.0,12.644,10.16,30,0,78
39.1,12.661,11.07,36,0,81
39.2,12.680,11.99,43,0,100
39.3,12.701,12.57,48,0,101
39.4,12.724,14.68,70,0,97
39.5,12.748,14.68,70,0,96
39.6,12.771,12.23,45,0,93
39.7,12.791,13.31,55,0,95
39.8,12.814,13.61,58,0,95
39.9,12.837,13.70,59,0,103
40.0,12.859,12.57,48,0,73
Stage_07_Total,
Stage distance(mile),0.396,
Speed Max (mph),27.68,
Watts Max,273
HR Max,0
RPM Max,108
KCal,6
40.1,12.889,21.62,190,0,110
40.2,12.929,24.34,260,0,112
40.3,12.970,25.31,289,0,117
40.4,13.013,25.85,306,0,116
40.5,13.055,25.91,308,0,119
40.6,13.098,25.82,305,0,121
40.7,13.140,25.82,305,0,119
40.8,13.183,26.00,311,0,122
40.9,13.226,25.67,300,0,120
41.0,13.269,24.55,266,0,104
Stage_08_Total,
Stage distance(mile),0.416,
Speed Max (mph),27.68,
Watts Max,332
HR Max,0
RPM Max,124
KCal,20
41.1,13.297,12.11,44,0,46
41.2,13.315,10.93,35,0,69
41.3,13.332,9.65,27,0,68
41.4,13.350,11.35,38,0,82
41.5,13.369,11.35,38,0,86
41.6,13.388,11.48,39,0,89
41.7,13.409,13.31,55,0,107
41.8,13.431,13.98,62,0,106
41.9,13.456,14.93,73,0,104
42.0,13.481,15.17,76,0,103
42.1,13.507,15.56,81,0,103
42.2,13.533,15.40,79,0,96
42.3,13.559,16.14,89,0,104
42.4,13.585,15.85,85,0,105
42.5,13.612,16.63,96,0,106
42.6,13.639,16.49,94,0,100
42.7,13.666,16.63,96,0,111
42.8,13.693,15.92,86,0,107
42.9,13.719,14.16,64,0,103
43.0,13.743,15.09,75,0,103
43.1,13.769,16.00,87,0,109
43.2,13.796,16.35,92,0,103
43.3,13.824,16.49,94,0,107
43.4,13.851,16.63,96,0,106
43.5,13.879,16.21,90,0,109
43.6,13.906,16.14,89,0,109
43.7,13.933,16.95,101,0,110
43.8,13.960,16.21,90,0,112
43.9,13.988,17.46,109,0,115
44.0,14.016,16.28,91,0,108
44.1,14.043,16.28,91,0,103
44.2,14.070,16.07,88,0,102
44.3,14.097,16.21,90,0,112
44.4,14.124,16.49,94,0,111
44.5,14.151,16.21,90,0,115
44.6,14.178,15.92,86,0,107
44.7,14.205,15.85,85,0,109
44.8,14.232,17.02,102,0,105
44.9,14.261,17.28,106,0,112
45.0,14.290,18.12,120,0,109
45.1,14.322,20.43,164,0,106
45.2,14.357,19.70,149,0,102
45.3,14.388,16.69,97,0,80
45.4,14.414,14.43,67,0,89
45.5,14.438,15.71,83,0,95
45.6,14.464,15.40,79,0,102
45.7,14.490,15.25,77,0,100
45.8,14.516,15.56,81,0,100
45.9,14.542,15.56,81,0,104
46.0,14.568,15.85,85,0,102
Stage_09_Total,
Stage distance(mile),1.297,
Speed Max (mph),27.68,
Watts Max,213
HR Max,0
RPM Max,115
KCal,29
46.1,14.596,18.24,122,0,117
46.2,14.629,21.04,177,0,111
46.3,14.665,21.27,182,0,112
46.4,14.700,21.44,186,0,110
46.5,14.735,21.32,183,0,117
46.6,14.772,22.46,210,0,117
46.7,14.809,21.40,185,0,115
46.8,14.846,22.66,215,0,116
46.9,14.884,23.21,229,0,117
47.0,14.924,23.51,237,0,114
47.1,14.962,22.58,213,0,116
47.2,15.000,23.47,236,0,116
47.3,15.039,23.47,236,0,113
47.4,15.079,23.62,240,0,110
47.5,15.118,23.76,244,0,112
47.6,15.157,22.69,216,0,114
47.7,15.196,23.62,240,0,112
47.8,15.233,22.25,205,0,115
47.9,15.269,21.96,198,0,115
48.0,15.306,22.77,218,0,113
Stage_10_Total,
Stage distance(mile),0.766,
Speed Max (mph),27.68,
Watts Max,247
HR Max,0
RPM Max,118
KCal,30
48.1,15.343,20.10,157,0,69
48.2,15.368,12.79,50,0,76
48.3,15.390,13.10,53,0,96
48.4,15.410,12.23,45,0,99
48.5,15.432,13.80,60,0,106
48.6,15.456,13.98,62,0,108
48.7,15.479,14.51,68,0,110
48.8,15.503,13.98,62,0,119
48.9,15.527,15.25,77,0,110
49.0,15.553,15.85,85,0,114
49.1,15.581,16.69,97,0,118
49.2,15.608,16.49,94,0,113
49.3,15.636,16.00,87,0,110
49.4,15.663,16.42,93,0,104
49.5,15.689,15.01,74,0,101
49.6,15.712,13.10,53,0,87
49.7,15.733,12.35,46,0,76
49.8,15.755,14.07,63,0,92
49.9,15.779,15.40,79,0,101
50.0,15.805,15.17,76,0,97
50.1,15.831,15.56,81,0,108
50.2,15.857,15.71,83,0,110
50.3,15.881,13.80,60,0,107
50.4,15.905,15.01,74,0,110
50.5,15.928,14.16,64,0,111
50.6,15.954,15.71,83,0,109
50.7,15.981,15.92,86,0,109
50.8,16.006,14.34,66,0,111
50.9,16.032,16.00,87,0,114
51.0,16.058,15.78,84,0,118
51.1,16.086,17.02,102,0,115
51.2,16.114,16.56,95,0,110
51.3,16.142,17.09,103,0,112
51.4,16.171,17.34,107,0,112
51.5,16.201,19.12,138,0,110
51.6,16.233,18.86,133,0,110
51.7,16.261,16.14,89,0,109
51.8,16.290,17.71,113,0,108
51.9,16.320,18.07,119,0,114
52.0,16.350,17.28,106,0,109
52.1,16.381,19.39,143,0,110
52.2,16.412,17.02,102,0,109
52.3,16.441,18.64,129,0,109
52.4,16.473,19.34,142,0,114
52.5,16.505,19.12,138,0,110
52.6,16.536,17.41,108,0,109
52.7,16.564,16.95,101,0,109
52.8,16.596,19.85,152,0,112
52.9,16.628,19.07,137,0,106
53.0,16.659,18.80,132,0,108
53.1,16.689,16.76,98,0,107
53.2,16.718,18.69,130,0,108
53.3,16.749,17.02,102,0,88
53.4,16.772,13.61,58,0,88
53.5,16.800,16.21,90,0,100
53.6,16.826,16.07,88,0,104
53.7,16.855,18.46,126,0,105
53.8,16.885,17.89,116,0,106
53.9,16.915,18.24,122,0,106
54.0,16.946,19.23,140,0,112
54.1,16.979,19.75,150,0,110
54.2,17.011,19.02,136,0,108
54.3,17.042,19.02,136,0,112
54.4,17.074,18.46,126,0,112
54.5,17.105,18.80,132,0,108
54.6,17.137,19.12,138,0,110
54.7,17.169,18.91,134,0,110
54.8,17.200,18.46,126,0,111
54.9,17.231,18.46,126,0,109
55.0,17.262,18.30,123,0,112
55.1,17.292,18.12,120,0,112
55.2,17.324,19.34,142,0,109
55.3,17.355,18.53,127,0,109
55.4,17.385,16.89,100,0,108
55.5,17.414,18.07,119,0,112
55.6,17.444,18.24,122,0,111
55.7,17.476,19.80,151,0,111
55.8,17.508,18.58,128,0,113
55.9,17.539,18.75,131,0,110
56.0,17.569,17.02,102,0,108
56.1,17.599,18.80,132,0,111
56.2,17.630,18.24,122,0,110
56.3,17.661,19.18,139,0,114
56.4,17.693,19.02,136,0,111
56.5,17.723,18.41,125,0,113
56.6,17.755,19.18,139,0,112
56.7,17.786,18.12,120,0,112
56.8,17.816,18.41,125,0,111
56.9,17.846,18.24,122,0,114
57.0,17.877,17.95,117,0,110
57.1,17.906,16.89,100,0,103
57.2,17.935,18.35,124,0,111
57.3,17.965,17.77,114,0,112
57.4,17.995,18.01,118,0,110
57.5,18.025,18.18,121,0,116
57.6,18.056,18.80,132,0,111
57.7,18.087,19.12,138,0,111
57.8,18.118,18.86,133,0,106
57.9,18.150,19.39,143,0,115
58.0,18.183,19.65,148,0,116
58.1,18.216,19.70,149,0,117
58.2,18.249,19.50,145,0,113
58.3,18.280,19.18,139,0,111
58.4,18.313,19.34,142,0,114
58.5,18.346,19.70,149,0,115
58.6,18.376,16.28,91,0,90
58.7,18.400,13.61,58,0,87
58.8,18.422,13.98,62,0,100
58.9,18.447,15.71,83,0,106
59.0,18.472,13.80,60,0,103
59.1,18.495,14.25,65,0,106
59.2,18.519,14.34,66,0,111
59.3,18.542,13.61,58,0,108
59.4,18.566,15.40,79,0,108
59.5,18.593,15.78,84,0,107
59.6,18.619,15.25,77,0,109
59.7,18.643,14.34,66,0,111
59.8,18.666,13.10,53,0,93
59.9,18.686,11.61,40,0,91
60.0,18.707,11.74,41,0,85
60.1,18.724,9.65,27,0,69
60.2,18.739,8.68,22,0,63

Stage_11_Total,
Stage distance(mile),3.406,
Speed Max (mph),27.68,
Watts Max,198
HR Max,0
RPM Max,121
KCal,88

Stage_Totals
Total Time,60.2,minutes
Total_distance:,18.744,
Speed Avg(mph),18.67,
Watts Avg,140
HR Avg,0
RPM Avg,107
Speed Max (mph),27.68,
Watts Max,370
HR Max,0
RPM Max,125
KCal,594

