
Stage_Workout (min),Distance(km),Speed(km/h),Watts ,HR ,RPM 
0.1,0.023,14.31,23,0,104
0.2,0.048,14.63,24,78,105
0.3,0.072,14.63,24,80,103
0.4,0.099,15.54,27,80,104
0.5,0.124,15.81,28,77,109
0.6,0.151,14.94,25,79,103
0.7,0.175,14.94,25,75,109
0.8,0.201,14.31,23,79,103
0.9,0.226,15.54,27,83,110
1.0,0.254,16.62,31,84,115
1.1,0.280,15.81,28,91,115
1.2,0.308,16.87,32,85,129
1.3,0.337,17.60,35,92,127
1.4,0.367,18.27,38,94,121
1.5,0.397,17.11,33,93,122
1.6,0.430,17.60,35,96,116
1.7,0.458,17.60,35,95,117
1.8,0.487,17.60,35,95,119
1.9,0.515,16.62,31,94,120
2.0,0.556,28.61,114,93,119
2.1,0.591,16.62,31,93,113
2.2,0.617,15.54,27,0,113
2.3,0.643,15.81,28,0,115
2.4,0.669,15.81,28,0,117
2.5,0.695,15.54,27,0,109
2.6,0.721,15.54,27,0,109
2.7,0.747,15.54,27,0,112
2.8,0.773,15.54,27,0,108
2.9,0.799,15.54,27,0,108
3.0,0.825,15.54,27,0,109
3.1,0.850,15.54,27,0,108
3.2,0.876,15.54,27,0,107
3.3,0.902,15.54,27,0,110
3.4,0.928,15.81,28,76,116
3.5,0.955,15.81,28,84,121
3.6,0.981,15.54,27,88,114
3.7,1.007,15.54,27,88,111
3.8,1.033,15.54,27,0,111
3.9,1.059,15.54,27,86,111
4.0,1.085,15.81,28,87,117
4.1,1.111,15.81,28,87,116
4.2,1.137,15.81,28,88,116
4.3,1.164,15.81,28,89,116
4.4,1.190,15.81,28,90,116
4.5,1.219,22.06,59,93,118
4.6,1.264,32.59,160,93,117
4.7,1.322,35.42,199,99,117
4.8,1.381,33.52,172,101,114
4.9,1.426,25.99,89,103,117
5.0,1.469,25.29,83,102,118
5.1,1.510,24.04,73,97,108
5.2,1.550,24.29,75,94,110
5.3,1.591,23.49,69,90,98
5.4,1.629,23.09,66,90,89
5.5,1.670,28.61,114,97,87
5.6,1.719,29.17,120,110,89
5.7,1.767,28.90,117,119,87
5.8,1.816,28.90,117,126,84
5.9,1.867,32.51,159,130,105
6.0,1.921,32.59,160,130,101
6.1,1.975,32.44,158,126,102
6.2,2.031,36.74,219,122,102
6.3,2.087,30.62,136,121,87
6.4,2.136,28.61,114,126,87
6.5,2.186,32.99,165,131,89
6.6,2.245,34.95,192,133,85
6.7,2.295,29.09,119,136,90
6.8,2.345,33.65,174,141,86
6.9,2.406,36.08,209,144,86
7.0,2.467,36.03,208,145,85
7.1,2.527,35.82,205,146,87
7.2,2.588,36.23,211,147,88
7.3,2.648,37.24,227,149,86
7.4,2.710,36.74,219,152,87
7.5,2.772,38.21,243,153,97
Stage_01_Total,
Stage distance (km),2.824,
Speed Max (km/h),39.46,
Watts Max,265
HR Max,153
RPM Max,130
KCal,42
7.6,2.834,34.24,182,151,102
7.7,2.888,32.75,162,149,101
7.8,2.942,32.04,153,140,99
7.9,3.002,36.74,219,132,99
8.0,3.064,36.42,214,132,92
8.1,3.119,32.12,154,132,76
8.2,3.177,34.87,191,129,73
8.3,3.234,34.52,186,126,72
8.4,3.291,34.24,182,126,70
8.5,3.348,34.68,188,123,76
8.6,3.406,33.65,174,126,67
8.7,3.461,32.81,163,127,67
8.8,3.516,33.13,167,132,69
8.9,3.571,33.95,178,134,74
9.0,3.627,32.89,164,128,68
9.1,3.684,34.52,186,131,66
9.2,3.743,35.42,199,138,67
9.3,3.802,35.76,204,141,67
9.4,3.861,35.63,202,139,70
9.5,3.918,34.73,189,133,72
9.6,3.975,35.28,197,134,68
9.7,4.035,35.63,202,137,63
9.8,4.096,37.24,227,141,69
9.9,4.158,36.42,214,139,65
10.0,4.219,36.74,219,138,64
10.1,4.283,37.67,234,138,67
10.2,4.346,38.72,252,139,66
10.3,4.408,36.61,217,141,60
10.4,4.468,36.74,219,143,65
10.5,4.529,36.92,222,143,63
10.6,4.590,35.69,203,143,61
10.7,4.651,38.03,240,143,66
10.8,4.717,41.72,308,143,86
10.9,4.779,32.36,157,143,93
11.0,4.834,33.57,173,142,96
Stage_02_Total,
Stage distance (km),2.046,
Speed Max (km/h),43.78,
Watts Max,352
HR Max,152
RPM Max,104
KCal,48
11.1,4.889,33.52,172,141,97
11.2,4.944,34.87,191,136,85
11.3,5.006,37.55,232,135,79
11.4,5.069,37.24,227,134,78
11.5,5.131,37.55,232,134,75
11.6,5.197,41.26,299,132,74
11.7,5.264,40.33,281,131,72
11.8,5.331,40.70,288,131,74
11.9,5.397,39.46,265,131,68
12.0,5.461,38.08,241,133,71
12.1,5.529,43.28,341,135,64
12.2,5.602,43.20,339,136,63
12.3,5.674,42.97,334,138,66
12.4,5.745,43.00,335,142,71
12.5,5.817,42.10,316,145,69
12.6,5.892,46.77,425,149,68
12.7,5.971,46.88,428,153,64
12.8,6.049,47.70,450,157,70
12.9,6.127,45.72,398,158,67
13.0,6.202,44.08,359,158,66
13.1,6.276,44.90,378,157,67
13.2,6.351,44.82,376,156,67
13.3,6.426,45.06,382,157,68
13.4,6.500,44.60,371,158,65
13.5,6.576,47.58,447,160,70
13.6,6.656,48.61,476,162,69
13.7,6.735,47.48,444,164,67
13.8,6.815,47.77,452,165,68
13.9,6.893,46.51,418,166,67
14.0,6.971,46.82,426,166,63
14.1,7.046,44.44,367,166,84
14.2,7.112,34.45,185,154,97
14.3,7.168,32.81,163,154,94
Stage_03_Total,
Stage distance (km),2.325,
Speed Max (km/h),49.20,
Watts Max,494
HR Max,166
RPM Max,100
KCal,78
14.4,7.223,32.59,160,154,94
14.5,7.276,33.29,169,155,100
14.6,7.332,32.36,157,150,94
14.7,7.388,33.13,167,146,91
14.8,7.440,29.83,127,143,88
14.9,7.491,31.72,149,138,95
15.0,7.549,39.19,260,134,93
15.1,7.612,35.42,199,128,73
15.2,7.670,35.02,193,123,70
15.3,7.728,34.33,183,123,69
15.4,7.785,34.10,180,120,69
15.5,7.844,37.85,237,119,70
15.6,7.907,37.79,236,119,70
15.7,7.970,37.90,238,118,69
15.8,8.032,37.05,224,119,65
15.9,8.097,40.80,290,120,64
16.0,8.161,37.48,231,121,64
16.1,8.223,37.37,229,122,65
16.2,8.288,41.51,304,124,63
16.3,8.359,42.97,334,124,65
16.4,8.432,43.20,339,128,62
16.5,8.503,42.15,317,130,56
16.6,8.578,45.14,384,131,64
16.7,8.650,42.86,332,135,62
16.8,8.725,45.24,386,141,55
16.9,8.799,45.64,396,145,57
17.0,8.873,44.69,373,145,57
17.1,8.946,44.65,372,147,57
17.2,9.021,44.52,369,151,57
17.3,9.096,45.97,404,153,58
17.4,9.170,45.56,394,154,55
17.5,9.246,45.72,398,156,58
17.6,9.321,44.18,361,157,50
17.7,9.395,45.64,396,158,56
17.8,9.475,46.66,422,160,54
17.9,9.554,46.27,412,162,50
18.0,9.633,50.75,543,164,52
18.1,9.709,42.15,317,165,46
18.2,9.782,45.72,398,165,54
18.3,9.856,43.28,341,166,49
18.4,9.931,44.26,363,166,48
18.5,10.004,43.55,347,166,51
18.6,10.079,43.95,356,167,90
18.7,10.140,31.40,145,149,88
18.8,10.193,32.75,162,143,90
Stage_04_Total,
Stage distance (km),3.025,
Speed Max (km/h),50.75,
Watts Max,543
HR Max,167
RPM Max,102
KCal,93
18.9,10.248,33.65,174,153,105
19.0,10.302,27.40,102,155,109
19.1,10.344,25.63,86,153,119
19.2,10.389,27.82,106,146,120
19.3,10.434,26.32,92,143,123
19.4,10.476,25.29,83,136,131
19.5,10.518,25.29,83,136,139
19.6,10.560,25.29,83,135,140
19.7,10.603,25.41,84,134,154
19.8,10.646,25.87,88,139,174
19.9,10.689,25.87,88,146,165
20.0,10.732,25.87,88,151,165
20.1,10.775,25.87,88,156,167
20.2,10.818,25.29,83,158,134
20.3,10.864,29.54,124,155,124
20.4,10.910,23.36,68,147,122
20.5,10.944,20.04,47,142,123
20.6,10.979,21.59,56,139,138
20.7,11.021,26.10,90,136,132
20.8,11.065,26.32,92,139,162
20.9,11.109,26.32,92,144,162
21.0,11.154,26.98,98,150,156
21.1,11.200,27.82,106,154,160
21.2,11.245,26.98,98,155,134
21.3,11.288,24.92,80,153,118
21.4,11.330,25.87,88,146,126
21.5,11.374,26.44,93,142,126
21.6,11.418,26.66,95,139,163
21.7,11.463,26.77,96,143,159
21.8,11.508,26.98,98,148,158
21.9,11.553,27.29,101,152,156
22.0,11.599,27.08,99,155,155
22.1,11.643,27.08,99,156,157
22.2,11.688,26.87,97,158,152
22.3,11.733,25.52,85,157,118
22.4,11.782,33.36,170,152,111
22.5,11.838,33.73,175,151,107
Stage_05_Total,
Stage distance (km),1.646,
Speed Max (km/h),50.75,
Watts Max,203
HR Max,159
RPM Max,175
KCal,25
22.6,11.894,32.99,165,145,102
22.7,11.949,33.21,168,142,103
22.8,12.003,35.28,197,142,81
22.9,12.058,31.40,145,140,71
23.0,12.112,31.30,144,138,67
23.1,12.164,30.96,140,140,67
23.2,12.215,30.78,138,146,69
23.3,12.269,32.81,163,150,71
23.4,12.323,32.12,154,152,73
23.5,12.382,36.87,221,149,75
23.6,12.444,36.87,221,148,73
23.7,12.505,36.61,217,149,74
23.8,12.564,34.87,191,152,72
23.9,12.623,35.63,202,158,71
24.0,12.682,35.28,197,163,72
24.1,12.741,35.76,204,164,68
24.2,12.798,34.68,188,163,73
24.3,12.857,34.45,185,162,72
24.4,12.916,35.36,198,157,71
24.5,12.980,42.10,316,155,67
24.6,13.044,37.17,226,154,64
24.7,13.103,35.36,198,152,60
24.8,13.163,37.67,234,154,70
24.9,13.227,39.19,260,157,68
25.0,13.293,40.01,275,158,71
25.1,13.360,39.73,270,158,70
25.2,13.421,34.87,191,156,64
25.3,13.484,38.03,240,158,63
25.4,13.545,37.29,228,160,66
25.5,13.607,37.55,232,160,67
25.6,13.669,38.95,256,159,67
25.7,13.732,38.78,253,158,67
25.8,13.796,38.61,250,155,81
25.9,13.856,35.76,204,147,81
26.0,13.913,33.73,175,148,77
26.1,13.969,33.73,175,148,76
Stage_06_Total,
Stage distance (km),2.132,
Speed Max (km/h),50.75,
Watts Max,368
HR Max,164
RPM Max,108
KCal,52
26.2,14.026,34.87,191,149,80
26.3,14.083,34.33,183,147,83
26.4,14.141,34.52,186,143,83
26.5,14.200,36.92,222,139,86
26.6,14.262,37.05,224,136,87
26.7,14.323,37.17,226,133,92
26.8,14.388,40.59,286,137,75
26.9,14.455,39.57,267,137,72
27.0,14.519,38.61,250,135,71
27.1,14.584,38.61,250,136,68
27.2,14.648,40.01,275,133,64
27.3,14.715,40.85,291,134,66
27.4,14.784,41.91,312,133,66
27.5,14.857,43.70,350,136,66
27.6,14.930,45.56,394,137,65
27.7,15.004,45.72,398,138,67
27.8,15.079,45.32,388,135,66
27.9,15.154,44.90,378,137,63
28.0,15.230,44.52,369,141,62
28.1,15.302,41.76,309,142,56
28.2,15.370,40.70,288,142,57
28.3,15.440,40.96,293,142,56
28.4,15.507,42.39,322,145,61
28.5,15.578,42.39,322,151,57
28.6,15.648,41.72,308,156,55
28.7,15.722,44.95,379,158,58
28.8,15.796,43.86,354,158,55
28.9,15.871,44.74,374,158,58
29.0,15.946,45.35,389,158,60
29.1,16.022,45.80,400,159,63
29.2,16.098,44.95,379,161,54
29.3,16.171,44.60,371,164,58
29.4,16.246,45.64,396,165,61
29.5,16.322,44.65,372,165,58
29.6,16.397,44.69,373,167,57
29.7,16.470,43.86,354,167,57
29.8,16.544,43.55,347,167,87
Stage_07_Total,
Stage distance (km),2.557,
Speed Max (km/h),50.75,
Watts Max,413
HR Max,167
RPM Max,92
KCal,81
29.9,16.602,31.72,149,166,88
30.0,16.653,30.53,135,156,88
30.1,16.705,32.04,153,158,90
30.2,16.758,33.21,168,158,96
30.3,16.814,33.21,168,153,94
30.4,16.869,33.57,173,153,91
30.5,16.924,33.13,167,151,93
30.6,16.981,33.52,172,147,93
30.7,17.042,39.46,265,138,87
30.8,17.107,39.53,266,134,84
30.9,17.172,38.21,243,134,76
31.0,17.233,37.05,224,137,77
31.1,17.295,37.11,225,139,78
31.2,17.357,36.35,213,138,75
31.3,17.419,38.90,255,139,85
31.4,17.483,37.72,235,137,77
31.5,17.545,36.23,211,139,71
31.6,17.607,39.19,260,141,76
31.7,17.672,39.46,265,144,74
31.8,17.742,42.46,323,149,82
31.9,17.813,42.49,324,150,83
32.0,17.884,42.49,324,151,82
32.1,17.956,45.03,381,152,74
32.2,18.030,43.10,337,155,74
32.3,18.100,41.62,306,156,75
32.4,18.167,40.33,281,157,72
32.5,18.235,39.73,270,159,72
32.6,18.304,41.76,309,160,75
32.7,18.373,42.02,314,162,76
32.8,18.443,42.29,320,164,76
32.9,18.514,42.46,323,162,76
33.0,18.583,40.80,290,160,74
33.1,18.653,43.60,348,160,83
33.2,18.728,44.77,375,161,82
33.3,18.801,44.18,361,163,84
33.4,18.873,41.33,300,167,73
33.5,18.945,45.80,400,168,95
33.6,19.003,32.28,156,165,96
33.7,19.056,31.56,147,155,99
33.8,19.109,30.70,137,158,93
Stage_08_Total,
Stage distance (km),2.562,
Speed Max (km/h),50.75,
Watts Max,401
HR Max,169
RPM Max,102
KCal,72
33.9,19.161,31.30,144,160,98
34.0,19.212,28.90,117,159,106
34.1,19.254,24.55,77,152,106
34.2,19.295,24.67,78,151,119
34.3,19.338,25.99,89,141,116
34.4,19.380,25.05,81,135,120
34.5,19.422,24.55,77,134,118
34.6,19.463,25.41,84,127,127
34.7,19.508,26.21,91,130,175
34.8,19.552,26.21,91,141,175
34.9,19.595,26.21,91,152,169
35.0,19.640,27.51,103,158,134
35.1,19.685,26.77,96,155,137
35.2,19.730,26.21,91,153,163
35.3,19.774,26.21,91,156,169
35.4,19.817,26.21,91,162,163
35.5,19.863,26.77,96,164,133
35.6,19.907,26.32,92,161,125
35.7,19.950,23.09,66,157,162
35.8,19.987,21.43,55,158,162
35.9,20.023,22.51,62,163,157
36.0,20.062,22.80,64,166,134
36.1,20.101,25.52,85,165,117
36.2,20.152,31.56,147,160,160
36.3,20.200,27.51,103,158,154
36.4,20.246,26.87,97,160,154
36.5,20.290,24.79,79,159,114
36.6,20.331,25.63,86,153,120
36.7,20.375,26.21,91,152,162
36.8,20.420,27.92,107,155,157
36.9,20.467,27.92,107,159,159
37.0,20.513,27.29,101,160,101
37.1,20.573,37.59,233,160,91
37.2,20.633,34.52,186,158,84
37.3,20.690,34.37,184,154,82
37.4,20.747,32.81,163,150,78
Stage_09_Total,
Stage distance (km),1.666,
Speed Max (km/h),50.75,
Watts Max,236
HR Max,167
RPM Max,176
KCal,27
37.5,20.801,32.28,156,149,72
37.6,20.859,35.90,206,147,68
37.7,20.923,39.19,260,142,79
37.8,20.986,37.55,232,139,77
37.9,21.050,39.96,274,138,78
38.0,21.114,37.48,231,138,75
38.1,21.178,38.16,242,139,73
38.2,21.242,41.22,298,142,75
38.3,21.311,41.67,307,144,76
38.4,21.380,41.81,310,145,75
38.5,21.449,40.38,282,148,74
38.6,21.517,42.05,315,150,76
38.7,21.584,40.01,275,153,74
38.8,21.652,40.12,277,157,73
38.9,21.719,40.85,291,158,74
39.0,21.787,41.12,296,160,73
39.1,21.856,41.36,301,163,76
39.2,21.930,45.11,383,164,77
39.3,22.005,44.77,375,165,78
39.4,22.079,44.95,379,167,77
39.5,22.154,45.40,390,167,77
39.6,22.229,44.60,371,168,73
39.7,22.303,44.18,361,168,73
39.8,22.375,43.00,335,169,70
39.9,22.447,42.97,334,170,72
40.0,22.518,42.73,329,170,72
40.1,22.590,43.86,354,170,75
40.2,22.664,44.98,380,171,77
40.3,22.740,44.95,379,173,76
40.4,22.815,44.82,376,172,74
40.5,22.889,45.43,391,171,77
40.6,22.964,44.26,363,171,74
40.7,23.037,43.65,349,172,71
40.8,23.109,43.70,350,172,77
40.9,23.173,35.69,203,172,74
41.0,23.231,34.87,191,172,73
41.1,23.290,36.79,220,169,83
Stage_10_Total,
Stage distance (km),2.507,
Speed Max (km/h),50.75,
Watts Max,412
HR Max,173
RPM Max,83
KCal,79
41.2,23.342,28.51,113,167,78
41.3,23.390,29.46,123,166,82
41.4,23.440,26.21,91,157,98
41.5,23.480,24.55,77,146,107
41.6,23.521,24.79,79,141,113
41.7,23.562,22.06,59,134,120
41.8,23.596,20.77,51,131,129
41.9,23.631,21.09,53,129,127
42.0,23.671,28.51,113,128,129
42.1,23.711,20.95,52,127,129
42.2,23.747,22.06,59,128,154
42.3,23.783,21.43,55,134,172
42.4,23.819,21.43,55,143,169
42.5,23.855,21.43,55,151,165
42.6,23.891,21.74,57,155,159
42.7,23.927,21.43,55,157,159
42.8,23.963,21.59,56,158,157
42.9,23.999,21.59,56,160,152
43.0,24.035,21.43,55,162,134
43.1,24.081,36.61,217,158,76
43.2,24.143,37.85,237,152,77
43.3,24.207,37.85,237,150,66
43.4,24.271,38.21,243,150,65
43.5,24.336,40.96,293,153,67
43.6,24.405,41.51,304,156,69
43.7,24.471,39.12,259,159,67
43.8,24.538,40.59,286,160,60
43.9,24.608,43.28,341,161,64
44.0,24.681,44.77,375,163,68
44.1,24.755,42.29,320,166,69
44.2,24.830,45.14,384,167,64
44.3,24.905,44.56,370,167,63
44.4,24.978,43.05,336,167,62
44.5,25.050,43.39,343,168,64
44.6,25.121,41.72,308,169,64
44.7,25.193,42.21,318,170,64
44.8,25.253,32.36,157,169,89
44.9,25.308,32.67,161,160,93
45.0,25.363,33.65,174,162,96
Stage_11_Total,
Stage distance (km),2.082,
Speed Max (km/h),50.75,
Watts Max,426
HR Max,170
RPM Max,172
KCal,49
45.1,25.418,32.12,154,161,88
45.2,25.474,35.08,194,156,95
45.3,25.533,35.50,200,150,107
45.4,25.593,36.35,213,144,106
45.5,25.654,36.87,221,143,107
45.6,25.715,35.28,197,142,103
45.7,25.783,43.65,349,142,103
45.8,25.856,43.95,356,143,102
45.9,25.927,40.22,279,143,105
46.0,25.992,39.19,260,143,103
46.1,26.064,45.40,390,139,106
46.2,26.140,44.65,372,140,103
46.3,26.214,44.90,378,144,104
46.4,26.288,44.77,375,147,101
46.5,26.363,44.90,378,145,102
46.6,26.438,44.65,372,148,102
46.7,26.513,46.09,407,157,106
46.8,26.590,46.30,413,159,109
46.9,26.667,46.13,408,159,106
47.0,26.745,48.44,471,159,95
47.1,26.823,45.06,382,159,87
47.2,26.894,41.76,309,162,88
47.3,26.964,42.39,322,165,86
47.4,27.035,42.92,333,166,91
47.5,27.104,40.27,280,166,82
47.6,27.169,35.50,200,166,63
47.7,27.220,28.03,108,154,62
47.8,27.267,29.83,127,153,66
47.9,27.315,27.92,107,153,62
48.0,27.363,29.54,124,143,69
Stage_12_Total,
Stage distance (km),2.015,
Speed Max (km/h),50.75,
Watts Max,471
HR Max,166
RPM Max,111
KCal,62
48.1,27.413,32.12,154,139,77
48.2,27.467,31.64,148,134,78
48.3,27.521,32.99,165,132,73
48.4,27.579,36.08,209,132,65
48.5,27.635,32.36,157,129,56
48.6,27.693,34.60,187,127,58
48.7,27.753,37.05,224,126,62
48.8,27.814,36.98,223,127,62
48.9,27.875,36.61,217,128,63
49.0,27.935,34.73,189,131,58
49.1,27.994,39.19,260,131,61
49.2,28.060,39.67,269,132,60
49.3,28.126,38.72,252,134,55
49.4,28.190,39.01,257,133,60
49.5,28.276,53.55,645,137,95
49.6,28.366,53.90,659,147,92
49.7,28.452,48.22,465,158,67
49.8,28.521,38.21,243,164,56
49.9,28.581,36.74,219,163,56
50.0,28.641,36.08,209,162,57
50.1,28.701,38.90,255,162,73
50.2,28.781,49.77,511,163,94
50.3,28.865,50.94,549,166,96
50.4,28.948,50.12,522,170,94
50.5,29.031,49.51,503,174,89
50.6,29.114,49.06,489,177,87
50.7,29.195,45.47,392,180,68
50.8,29.259,35.55,201,180,53
50.9,29.318,36.42,214,177,58
51.0,29.385,38.72,252,175,82
51.1,29.433,24.79,79,174,91
Stage_13_Total,
Stage distance (km),2.072,
Speed Max (km/h),54.06,
Watts Max,666
HR Max,180
RPM Max,100
KCal,66
51.2,29.472,24.67,78,169,103
51.3,29.514,22.51,62,167,141
51.4,29.552,27.71,105,165,143
51.5,29.605,32.89,164,165,152
51.6,29.656,28.32,111,165,157
51.7,29.701,27.51,103,167,156
51.8,29.746,26.10,90,167,125
51.9,29.789,31.14,142,161,67
52.0,29.846,35.28,197,154,61
52.1,29.906,35.69,203,149,63
52.2,29.965,35.76,204,146,64
52.3,30.027,37.37,229,144,68
52.4,30.088,36.35,213,140,64
52.5,30.152,39.01,257,140,60
52.6,30.220,41.26,299,143,65
52.7,30.290,41.33,300,144,68
52.8,30.366,47.58,447,147,64
52.9,30.444,46.82,426,153,63
53.0,30.522,47.70,450,159,66
53.1,30.600,46.58,420,163,66
53.2,30.678,45.97,404,165,61
53.3,30.756,46.63,421,168,64
53.4,30.830,43.33,342,169,57
53.5,30.908,52.24,595,169,97
53.6,30.978,40.54,285,169,147
53.7,31.039,34.87,191,170,153
53.8,31.089,27.92,107,171,157
53.9,31.135,27.19,100,171,152
54.0,31.180,27.08,99,171,156
54.1,31.224,25.52,85,170,118
